2023-11-04 20:35:27,444 - INFO - Starting main processing function.
2023-11-04 20:35:27,444 - INFO - Subject ID: sub-LRN001, Session ID: ses-1
2023-11-04 20:35:27,444 - INFO - Processing subject: sub-LRN001, session: ses-1
2023-11-04 20:35:27,444 - INFO - Loading MAT file from /Users/PAM201/Documents/MRI/LEARN/BIDS_test/sourcedata/sub-LRN001/ses-1/physio/sub-LRN001_ses-1_task-rest_physio.mat
2023-11-04 20:35:27,796 - INFO - Labels extracted from MAT file: ['ECG Test - ECG100C' 'RSP Test - RSP100C' 'EDA - EDA100C-MRI'
 'MRI Trigger - Custom, HLT100C - A 4' 'Digital input' 'Digital input'
 'Digital input' 'Digital input' 'Digital input' 'Digital input'
 'Digital input' 'Digital input']
2023-11-04 20:35:27,796 - INFO - Units extracted from MAT file: ['mV' 'Volts' 'microsiemens' 'Volts' 'Volts' 'Volts' 'Volts' 'Volts'
 'Volts' 'Volts' 'Volts' 'Volts']
2023-11-04 20:35:27,796 - INFO - Successfully loaded MAT file from /Users/PAM201/Documents/MRI/LEARN/BIDS_test/sourcedata/sub-LRN001/ses-1/physio/sub-LRN001_ses-1_task-rest_physio.mat
2023-11-04 20:35:27,796 - INFO - Physiological data loaded successfully.
2023-11-04 20:35:27,796 - INFO - Renaming channels according to BIDS conventions
2023-11-04 20:35:27,796 - INFO - BIDS labels dictionary mapping: {'ECG Test - ECG100C': 'cardiac', 'RSP Test - RSP100C': 'respiratory', 'EDA - EDA100C-MRI': 'eda', 'MRI Trigger - Custom, HLT100C - A 4': 'trigger'}
2023-11-04 20:35:27,796 - INFO - BIDS labels list after renaming: ['cardiac', 'respiratory', 'eda', 'trigger']
2023-11-04 20:35:27,796 - INFO - Renaming channels according to BIDS conventions
2023-11-04 20:35:27,796 - INFO - BIDS labels dictionary mapping: {'ECG Test - ECG100C': 'cardiac', 'RSP Test - RSP100C': 'respiratory', 'EDA - EDA100C-MRI': 'eda', 'MRI Trigger - Custom, HLT100C - A 4': 'trigger'}
2023-11-04 20:35:27,796 - INFO - BIDS labels list after renaming: ['cardiac', 'respiratory', 'eda', 'trigger']
2023-11-04 20:35:27,796 - INFO - BIDS Labels: ['cardiac', 'respiratory', 'eda', 'trigger']
2023-11-04 20:35:27,796 - INFO - Channels renamed according to BIDS format and units dictionary created.
2023-11-04 20:35:27,796 - INFO - Extracting metadata from /Users/PAM201/Documents/MRI/LEARN/BIDS_test/dataset/sub-LRN001/ses-1/func/sub-LRN001_ses-1_task-rest_run-01_bold.json
2023-11-04 20:35:27,796 - INFO - Metadata for run run-01 extracted successfully.
2023-11-04 20:35:27,796 - INFO - Run metadata for run-01: {'TaskName': 'rest', 'RepetitionTime': 2, 'NumVolumes': 175}
2023-11-04 20:35:27,796 - INFO - Repetition time: 2
2023-11-04 20:35:27,796 - INFO - Number of volumes per run: 175
2023-11-04 20:35:27,796 - INFO - Samples per volume: 10000
2023-11-04 20:35:27,873 - INFO - Trigger starts: [ 7929196  7967695  8006195  8096545  8135045  8173544  8695841  8705841
  8715841  8725841  8735841  8745841  8755841  8765840  8775840  8785840
  8795840  8805840  8815840  8825840  8835840  8845840  8855840  8865840
  8875839  8885839  8895839  8905839  8915839  8925839  8935839  8945839
  8955839  8965839  8975839  8985838  8995838  9005838  9015838  9025838
  9035838  9045838  9055838  9065838  9075838  9085837  9095837  9105837
  9115837  9125837  9135837  9145837  9155837  9165837  9175837  9185837
  9195836  9205836  9215836  9225836  9235836  9245836  9255836  9265836
  9275836  9285836  9295836  9305835  9315835  9325835  9335835  9345835
  9355835  9365835  9375835  9385835  9395835  9405835  9415834  9425834
  9435834  9445834  9455834  9465834  9475834  9485834  9495834  9505834
  9515834  9525833  9535833  9545833  9555833  9565833  9575833  9585833
  9595833  9605833  9615833  9625832  9635832  9645832  9655832  9665832
  9675832  9685832  9695832  9705832  9715832  9725832  9735831  9745831
  9755831  9765831  9775831  9785831  9795831  9805831  9815831  9825831
  9835831  9845830  9855830  9865830  9875830  9885830  9895830  9905830
  9915830  9925830  9935830  9945829  9955829  9965829  9975829  9985829
  9995829 10005829 10015829 10025829 10035829 10045829 10055828 10065828
 10075828 10085828 10095828 10105828 10115828 10125828 10135828 10145828
 10155828 10165827 10175827 10185827 10195827 10205827 10215827 10225827
 10235827 10245827 10255827 10265827 10275826 10285826 10295826 10305826
 10315826 10325826 10335826 10345826 10355826 10365826 10375825 10385825
 10395825 10405825 10415825 10425825 10435825 10509314 10519314 10529313
 10539313 10549313 10559313 10569313 10579313 10589313 10599313 10609313
 10619313 10629313 10639312 10649312 10659312 10669312 10679312 10689312
 10699312 10709312 10719312 10729312 10739312 10749311 10759311 10769311
 10779311 10789311 10799311 10809311 10819311 10829311 10839311 10849310
 10859310 10869310 10879310 10889310 10899310 10909310 10919310 10929310
 10939310 10949310 10959309 10969309 10979309 10989309 10999309 11009309
 11019309 11029309 11039309 11049309 11059309 11069308 11079308 11089308
 11099308 11109308 11119308 11129308 11139308 11149308 11159308 11169308
 11179307 11189307 11199307 11209307 11219307 11229307 11239307 11249307
 11259307 11269307 11279306 11289306 11299306 11309306 11319306 11329306
 11339306 11349306 11359306 11369306 11379306 11389305 11399305 11409305
 11419305 11429305 11439305 11449305 11459305 11469305 11479305 11489305
 11499304 11509304 11519304 11529304 11539304 11549304 11559304 11569304
 11579304 11589304 11599304 11609303 11619303 11629303 11639303 11649303
 11659303 11669303 11679303 11689303 11699303 11709302 11719302 11729302
 11739302 11749302 11759302 11769302 11779302 11789302 11799302 11809302
 11819301 11829301 11839301 11849301 11859301 11869301 11879301 11889301
 11899301 11909301 11919301 11929300 11939300 11949300 11959300 11969300
 11979300 11989300 11999300 12009300 12019300 12029300 12039299 12049299
 12059299 12069299 12079299 12089299 12099299 12109299 12119299 12129299
 12139298 12149298 12159298 12169298 12179298 12189298 12199298 12209298
 12219298 12229298 12239298 12249297 12480866 12490866 12500866 12510866
 12520866 12530866 12540866 12550865 12560865 12570865 12580865 12590865
 12600865 12610865 12620865 12630865 12640865 12650865 12660864 12670864
 12680864 12690864 12700864 12710864 12720864 12730864 12740864 12750864
 12760864 12770863 12780863 12790863 12800863 12810863 12820863 12830863
 12840863 12850863 12860863 12870862 12880862 12890862 12900862 12910862
 12920862 12930862 12940862 12950862 12960862 12970862 12980861 12990861
 13000861 13010861 13020861 13030861 13040861 13050861 13060861 13070861
 13080861 13090860 13100860 13110860 13120860 13130860 13140860 13150860
 13160860 13170860 13180860 13190859 13200859 13210859 13220859 13230859
 13240859 13250859 13260859 13270859 13280859 13290859 13300858 13310858
 13320858 13330858 13340858 13350858 13360858 13370858 13380858 13390858
 13400858 13410857 13420857 13430857 13440857 13450857 13460857 13470857
 13480857 13490857 13500857 13510857 13520856 13530856 13540856 13550856
 13560856 13570856 13580856 13590856 13600856 13610856 13620855 13630855
 13640855 13650855 13660855 13670855 13680855 13690855 13700855 13710855
 13720855 13730854 13740854 13750854 13760854 13770854 13780854 13790854
 13800854 13810854 13820854 13830854 13840853 13850853 13860853 13870853
 13880853 13890853 13900853 13910853 13920853 13930853 13940853 13950852
 13960852 13970852 13980852 13990852 14000852 14010852 14020852 14030852
 14040852 14050851 14060851 14070851 14080851 14090851 14100851 14110851
 14120851 14130851 14140851 14150851 14160850 14170850 14180850 14190850
 14200850 14210850 14220850 14294290 14304290 14314290 14324290 14334289
 14344289 14354289 14364289 14374289 14384289 14394289 14404289 14414289
 14424289 14434289 14444288 14454288 14464288 14474288 14484288 14494288
 14504288 14514288 14524288 14534288 14544288 14554287 14564287 14574287
 14584287 14594287 14604287 14614287 14624287 14634287 14644287 14654286
 14664286 14674286 14684286 14694286 14704286 14714286 14724286 14734286
 14744286 14754286 14764285 14774285 14784285 14794285 14804285 14814285
 14824285 14834285 14844285 14854285 14864285 14874284 14884284 14894284
 14904284 14914284 14924284 14934284 14944284 14954284 14964284 14974284
 14984283 14994283 15004283 15014283 15024283 15034283 15044283 15054283
 15064283 15074283 15084282 15094282 15104282 15114282 15124282 15134282
 15144282 15154282 15164282 15174282 15184282 15194281 15204281 15214281
 15224281 15234281 15244281 15254281 15264281 15274281 15284281 15294281
 15304280 15314280 15324280 15334280 15344280 15354280 15364280 15374280
 15384280 15394280 15404280 15414279 15424279 15434279 15444279 15454279
 15464279 15474279 15484279 15494279 15504279 15514278 15524278 15534278
 15544278 15554278 15564278 15574278 15584278 15594278 15604278 15614278
 15624277 15634277 15644277 15654277 15664277 15674277 15684277 15694277
 15704277 15714277 15724277 15734276 15744276 15754276 15764276 15774276
 15784276 15794276 15804276 15814276 15824276 15834276 15844275 15854275
 15864275 15874275 15884275 15894275 15904275 15914275 15924275 15934275
 15944274 15954274 15964274 15974274 15984274 15994274 16004274 16014274
 16024274 16034274 18341236 18381503 18702035 18862033 19022032 19182030
 19342029 19502027 19662026 19822024 19982023 20142021]
2023-11-04 20:35:27,873 - INFO - Number of trigger starts: 718
2023-11-04 20:35:27,873 - INFO - Run found from index 8695841 to 10445841
2023-11-04 20:35:27,873 - INFO - Run found from index 10509314 to 12259314
2023-11-04 20:35:27,873 - INFO - Run found from index 12480866 to 14230866
2023-11-04 20:35:27,874 - INFO - Run found from index 14294290 to 16044290
2023-11-04 20:35:27,874 - INFO - Found 4 runs for run-01.
2023-11-04 20:35:27,874 - INFO - Run 1 for run-01: Start index: 8695841, End index: 10445841
2023-11-04 20:35:27,874 - INFO - Run 2 for run-01: Start index: 10509314, End index: 12259314
2023-11-04 20:35:27,874 - INFO - Run 3 for run-01: Start index: 12480866, End index: 14230866
2023-11-04 20:35:27,874 - INFO - Run 4 for run-01: Start index: 14294290, End index: 16044290
2023-11-04 20:35:27,874 - INFO - Processing Current Run run-01 of 4 Total Runs Identified.
2023-11-04 20:35:34,941 - INFO - Output files for run run-01 written successfully to /Users/PAM201/Documents/MRI/LEARN/BIDS_test/dataset/sub-LRN001/ses-1/func
2023-11-04 20:35:34,942 - INFO - Extracting metadata from /Users/PAM201/Documents/MRI/LEARN/BIDS_test/dataset/sub-LRN001/ses-1/func/sub-LRN001_ses-1_task-rest_run-02_bold.json
2023-11-04 20:35:34,942 - INFO - Metadata for run run-02 extracted successfully.
2023-11-04 20:35:34,942 - INFO - Run metadata for run-02: {'TaskName': 'rest', 'RepetitionTime': 2, 'NumVolumes': 175}
2023-11-04 20:35:34,942 - INFO - Repetition time: 2
2023-11-04 20:35:34,942 - INFO - Number of volumes per run: 175
2023-11-04 20:35:34,942 - INFO - Samples per volume: 10000
2023-11-04 20:35:34,997 - INFO - Trigger starts: [ 7929196  7967695  8006195  8096545  8135045  8173544  8695841  8705841
  8715841  8725841  8735841  8745841  8755841  8765840  8775840  8785840
  8795840  8805840  8815840  8825840  8835840  8845840  8855840  8865840
  8875839  8885839  8895839  8905839  8915839  8925839  8935839  8945839
  8955839  8965839  8975839  8985838  8995838  9005838  9015838  9025838
  9035838  9045838  9055838  9065838  9075838  9085837  9095837  9105837
  9115837  9125837  9135837  9145837  9155837  9165837  9175837  9185837
  9195836  9205836  9215836  9225836  9235836  9245836  9255836  9265836
  9275836  9285836  9295836  9305835  9315835  9325835  9335835  9345835
  9355835  9365835  9375835  9385835  9395835  9405835  9415834  9425834
  9435834  9445834  9455834  9465834  9475834  9485834  9495834  9505834
  9515834  9525833  9535833  9545833  9555833  9565833  9575833  9585833
  9595833  9605833  9615833  9625832  9635832  9645832  9655832  9665832
  9675832  9685832  9695832  9705832  9715832  9725832  9735831  9745831
  9755831  9765831  9775831  9785831  9795831  9805831  9815831  9825831
  9835831  9845830  9855830  9865830  9875830  9885830  9895830  9905830
  9915830  9925830  9935830  9945829  9955829  9965829  9975829  9985829
  9995829 10005829 10015829 10025829 10035829 10045829 10055828 10065828
 10075828 10085828 10095828 10105828 10115828 10125828 10135828 10145828
 10155828 10165827 10175827 10185827 10195827 10205827 10215827 10225827
 10235827 10245827 10255827 10265827 10275826 10285826 10295826 10305826
 10315826 10325826 10335826 10345826 10355826 10365826 10375825 10385825
 10395825 10405825 10415825 10425825 10435825 10509314 10519314 10529313
 10539313 10549313 10559313 10569313 10579313 10589313 10599313 10609313
 10619313 10629313 10639312 10649312 10659312 10669312 10679312 10689312
 10699312 10709312 10719312 10729312 10739312 10749311 10759311 10769311
 10779311 10789311 10799311 10809311 10819311 10829311 10839311 10849310
 10859310 10869310 10879310 10889310 10899310 10909310 10919310 10929310
 10939310 10949310 10959309 10969309 10979309 10989309 10999309 11009309
 11019309 11029309 11039309 11049309 11059309 11069308 11079308 11089308
 11099308 11109308 11119308 11129308 11139308 11149308 11159308 11169308
 11179307 11189307 11199307 11209307 11219307 11229307 11239307 11249307
 11259307 11269307 11279306 11289306 11299306 11309306 11319306 11329306
 11339306 11349306 11359306 11369306 11379306 11389305 11399305 11409305
 11419305 11429305 11439305 11449305 11459305 11469305 11479305 11489305
 11499304 11509304 11519304 11529304 11539304 11549304 11559304 11569304
 11579304 11589304 11599304 11609303 11619303 11629303 11639303 11649303
 11659303 11669303 11679303 11689303 11699303 11709302 11719302 11729302
 11739302 11749302 11759302 11769302 11779302 11789302 11799302 11809302
 11819301 11829301 11839301 11849301 11859301 11869301 11879301 11889301
 11899301 11909301 11919301 11929300 11939300 11949300 11959300 11969300
 11979300 11989300 11999300 12009300 12019300 12029300 12039299 12049299
 12059299 12069299 12079299 12089299 12099299 12109299 12119299 12129299
 12139298 12149298 12159298 12169298 12179298 12189298 12199298 12209298
 12219298 12229298 12239298 12249297 12480866 12490866 12500866 12510866
 12520866 12530866 12540866 12550865 12560865 12570865 12580865 12590865
 12600865 12610865 12620865 12630865 12640865 12650865 12660864 12670864
 12680864 12690864 12700864 12710864 12720864 12730864 12740864 12750864
 12760864 12770863 12780863 12790863 12800863 12810863 12820863 12830863
 12840863 12850863 12860863 12870862 12880862 12890862 12900862 12910862
 12920862 12930862 12940862 12950862 12960862 12970862 12980861 12990861
 13000861 13010861 13020861 13030861 13040861 13050861 13060861 13070861
 13080861 13090860 13100860 13110860 13120860 13130860 13140860 13150860
 13160860 13170860 13180860 13190859 13200859 13210859 13220859 13230859
 13240859 13250859 13260859 13270859 13280859 13290859 13300858 13310858
 13320858 13330858 13340858 13350858 13360858 13370858 13380858 13390858
 13400858 13410857 13420857 13430857 13440857 13450857 13460857 13470857
 13480857 13490857 13500857 13510857 13520856 13530856 13540856 13550856
 13560856 13570856 13580856 13590856 13600856 13610856 13620855 13630855
 13640855 13650855 13660855 13670855 13680855 13690855 13700855 13710855
 13720855 13730854 13740854 13750854 13760854 13770854 13780854 13790854
 13800854 13810854 13820854 13830854 13840853 13850853 13860853 13870853
 13880853 13890853 13900853 13910853 13920853 13930853 13940853 13950852
 13960852 13970852 13980852 13990852 14000852 14010852 14020852 14030852
 14040852 14050851 14060851 14070851 14080851 14090851 14100851 14110851
 14120851 14130851 14140851 14150851 14160850 14170850 14180850 14190850
 14200850 14210850 14220850 14294290 14304290 14314290 14324290 14334289
 14344289 14354289 14364289 14374289 14384289 14394289 14404289 14414289
 14424289 14434289 14444288 14454288 14464288 14474288 14484288 14494288
 14504288 14514288 14524288 14534288 14544288 14554287 14564287 14574287
 14584287 14594287 14604287 14614287 14624287 14634287 14644287 14654286
 14664286 14674286 14684286 14694286 14704286 14714286 14724286 14734286
 14744286 14754286 14764285 14774285 14784285 14794285 14804285 14814285
 14824285 14834285 14844285 14854285 14864285 14874284 14884284 14894284
 14904284 14914284 14924284 14934284 14944284 14954284 14964284 14974284
 14984283 14994283 15004283 15014283 15024283 15034283 15044283 15054283
 15064283 15074283 15084282 15094282 15104282 15114282 15124282 15134282
 15144282 15154282 15164282 15174282 15184282 15194281 15204281 15214281
 15224281 15234281 15244281 15254281 15264281 15274281 15284281 15294281
 15304280 15314280 15324280 15334280 15344280 15354280 15364280 15374280
 15384280 15394280 15404280 15414279 15424279 15434279 15444279 15454279
 15464279 15474279 15484279 15494279 15504279 15514278 15524278 15534278
 15544278 15554278 15564278 15574278 15584278 15594278 15604278 15614278
 15624277 15634277 15644277 15654277 15664277 15674277 15684277 15694277
 15704277 15714277 15724277 15734276 15744276 15754276 15764276 15774276
 15784276 15794276 15804276 15814276 15824276 15834276 15844275 15854275
 15864275 15874275 15884275 15894275 15904275 15914275 15924275 15934275
 15944274 15954274 15964274 15974274 15984274 15994274 16004274 16014274
 16024274 16034274 18341236 18381503 18702035 18862033 19022032 19182030
 19342029 19502027 19662026 19822024 19982023 20142021]
2023-11-04 20:35:34,997 - INFO - Number of trigger starts: 718
2023-11-04 20:35:34,997 - INFO - Run found from index 8695841 to 10445841
2023-11-04 20:35:34,997 - INFO - Run found from index 10509314 to 12259314
2023-11-04 20:35:34,997 - INFO - Run found from index 12480866 to 14230866
2023-11-04 20:35:34,997 - INFO - Run found from index 14294290 to 16044290
2023-11-04 20:35:34,998 - INFO - Found 4 runs for run-02.
2023-11-04 20:35:34,998 - INFO - Run 1 for run-02: Start index: 8695841, End index: 10445841
2023-11-04 20:35:34,998 - INFO - Run 2 for run-02: Start index: 10509314, End index: 12259314
2023-11-04 20:35:34,998 - INFO - Run 3 for run-02: Start index: 12480866, End index: 14230866
2023-11-04 20:35:34,998 - INFO - Run 4 for run-02: Start index: 14294290, End index: 16044290
2023-11-04 20:35:34,998 - INFO - Processing Current Run run-02 of 4 Total Runs Identified.
2023-11-04 20:35:41,998 - INFO - Output files for run run-02 written successfully to /Users/PAM201/Documents/MRI/LEARN/BIDS_test/dataset/sub-LRN001/ses-1/func
2023-11-04 20:35:41,999 - INFO - Extracting metadata from /Users/PAM201/Documents/MRI/LEARN/BIDS_test/dataset/sub-LRN001/ses-1/func/sub-LRN001_ses-1_task-rest_run-03_bold.json
2023-11-04 20:35:41,999 - INFO - Metadata for run run-03 extracted successfully.
2023-11-04 20:35:41,999 - INFO - Run metadata for run-03: {'TaskName': 'rest', 'RepetitionTime': 2, 'NumVolumes': 175}
2023-11-04 20:35:41,999 - INFO - Repetition time: 2
2023-11-04 20:35:41,999 - INFO - Number of volumes per run: 175
2023-11-04 20:35:41,999 - INFO - Samples per volume: 10000
2023-11-04 20:35:42,060 - INFO - Trigger starts: [ 7929196  7967695  8006195  8096545  8135045  8173544  8695841  8705841
  8715841  8725841  8735841  8745841  8755841  8765840  8775840  8785840
  8795840  8805840  8815840  8825840  8835840  8845840  8855840  8865840
  8875839  8885839  8895839  8905839  8915839  8925839  8935839  8945839
  8955839  8965839  8975839  8985838  8995838  9005838  9015838  9025838
  9035838  9045838  9055838  9065838  9075838  9085837  9095837  9105837
  9115837  9125837  9135837  9145837  9155837  9165837  9175837  9185837
  9195836  9205836  9215836  9225836  9235836  9245836  9255836  9265836
  9275836  9285836  9295836  9305835  9315835  9325835  9335835  9345835
  9355835  9365835  9375835  9385835  9395835  9405835  9415834  9425834
  9435834  9445834  9455834  9465834  9475834  9485834  9495834  9505834
  9515834  9525833  9535833  9545833  9555833  9565833  9575833  9585833
  9595833  9605833  9615833  9625832  9635832  9645832  9655832  9665832
  9675832  9685832  9695832  9705832  9715832  9725832  9735831  9745831
  9755831  9765831  9775831  9785831  9795831  9805831  9815831  9825831
  9835831  9845830  9855830  9865830  9875830  9885830  9895830  9905830
  9915830  9925830  9935830  9945829  9955829  9965829  9975829  9985829
  9995829 10005829 10015829 10025829 10035829 10045829 10055828 10065828
 10075828 10085828 10095828 10105828 10115828 10125828 10135828 10145828
 10155828 10165827 10175827 10185827 10195827 10205827 10215827 10225827
 10235827 10245827 10255827 10265827 10275826 10285826 10295826 10305826
 10315826 10325826 10335826 10345826 10355826 10365826 10375825 10385825
 10395825 10405825 10415825 10425825 10435825 10509314 10519314 10529313
 10539313 10549313 10559313 10569313 10579313 10589313 10599313 10609313
 10619313 10629313 10639312 10649312 10659312 10669312 10679312 10689312
 10699312 10709312 10719312 10729312 10739312 10749311 10759311 10769311
 10779311 10789311 10799311 10809311 10819311 10829311 10839311 10849310
 10859310 10869310 10879310 10889310 10899310 10909310 10919310 10929310
 10939310 10949310 10959309 10969309 10979309 10989309 10999309 11009309
 11019309 11029309 11039309 11049309 11059309 11069308 11079308 11089308
 11099308 11109308 11119308 11129308 11139308 11149308 11159308 11169308
 11179307 11189307 11199307 11209307 11219307 11229307 11239307 11249307
 11259307 11269307 11279306 11289306 11299306 11309306 11319306 11329306
 11339306 11349306 11359306 11369306 11379306 11389305 11399305 11409305
 11419305 11429305 11439305 11449305 11459305 11469305 11479305 11489305
 11499304 11509304 11519304 11529304 11539304 11549304 11559304 11569304
 11579304 11589304 11599304 11609303 11619303 11629303 11639303 11649303
 11659303 11669303 11679303 11689303 11699303 11709302 11719302 11729302
 11739302 11749302 11759302 11769302 11779302 11789302 11799302 11809302
 11819301 11829301 11839301 11849301 11859301 11869301 11879301 11889301
 11899301 11909301 11919301 11929300 11939300 11949300 11959300 11969300
 11979300 11989300 11999300 12009300 12019300 12029300 12039299 12049299
 12059299 12069299 12079299 12089299 12099299 12109299 12119299 12129299
 12139298 12149298 12159298 12169298 12179298 12189298 12199298 12209298
 12219298 12229298 12239298 12249297 12480866 12490866 12500866 12510866
 12520866 12530866 12540866 12550865 12560865 12570865 12580865 12590865
 12600865 12610865 12620865 12630865 12640865 12650865 12660864 12670864
 12680864 12690864 12700864 12710864 12720864 12730864 12740864 12750864
 12760864 12770863 12780863 12790863 12800863 12810863 12820863 12830863
 12840863 12850863 12860863 12870862 12880862 12890862 12900862 12910862
 12920862 12930862 12940862 12950862 12960862 12970862 12980861 12990861
 13000861 13010861 13020861 13030861 13040861 13050861 13060861 13070861
 13080861 13090860 13100860 13110860 13120860 13130860 13140860 13150860
 13160860 13170860 13180860 13190859 13200859 13210859 13220859 13230859
 13240859 13250859 13260859 13270859 13280859 13290859 13300858 13310858
 13320858 13330858 13340858 13350858 13360858 13370858 13380858 13390858
 13400858 13410857 13420857 13430857 13440857 13450857 13460857 13470857
 13480857 13490857 13500857 13510857 13520856 13530856 13540856 13550856
 13560856 13570856 13580856 13590856 13600856 13610856 13620855 13630855
 13640855 13650855 13660855 13670855 13680855 13690855 13700855 13710855
 13720855 13730854 13740854 13750854 13760854 13770854 13780854 13790854
 13800854 13810854 13820854 13830854 13840853 13850853 13860853 13870853
 13880853 13890853 13900853 13910853 13920853 13930853 13940853 13950852
 13960852 13970852 13980852 13990852 14000852 14010852 14020852 14030852
 14040852 14050851 14060851 14070851 14080851 14090851 14100851 14110851
 14120851 14130851 14140851 14150851 14160850 14170850 14180850 14190850
 14200850 14210850 14220850 14294290 14304290 14314290 14324290 14334289
 14344289 14354289 14364289 14374289 14384289 14394289 14404289 14414289
 14424289 14434289 14444288 14454288 14464288 14474288 14484288 14494288
 14504288 14514288 14524288 14534288 14544288 14554287 14564287 14574287
 14584287 14594287 14604287 14614287 14624287 14634287 14644287 14654286
 14664286 14674286 14684286 14694286 14704286 14714286 14724286 14734286
 14744286 14754286 14764285 14774285 14784285 14794285 14804285 14814285
 14824285 14834285 14844285 14854285 14864285 14874284 14884284 14894284
 14904284 14914284 14924284 14934284 14944284 14954284 14964284 14974284
 14984283 14994283 15004283 15014283 15024283 15034283 15044283 15054283
 15064283 15074283 15084282 15094282 15104282 15114282 15124282 15134282
 15144282 15154282 15164282 15174282 15184282 15194281 15204281 15214281
 15224281 15234281 15244281 15254281 15264281 15274281 15284281 15294281
 15304280 15314280 15324280 15334280 15344280 15354280 15364280 15374280
 15384280 15394280 15404280 15414279 15424279 15434279 15444279 15454279
 15464279 15474279 15484279 15494279 15504279 15514278 15524278 15534278
 15544278 15554278 15564278 15574278 15584278 15594278 15604278 15614278
 15624277 15634277 15644277 15654277 15664277 15674277 15684277 15694277
 15704277 15714277 15724277 15734276 15744276 15754276 15764276 15774276
 15784276 15794276 15804276 15814276 15824276 15834276 15844275 15854275
 15864275 15874275 15884275 15894275 15904275 15914275 15924275 15934275
 15944274 15954274 15964274 15974274 15984274 15994274 16004274 16014274
 16024274 16034274 18341236 18381503 18702035 18862033 19022032 19182030
 19342029 19502027 19662026 19822024 19982023 20142021]
2023-11-04 20:35:42,060 - INFO - Number of trigger starts: 718
2023-11-04 20:35:42,060 - INFO - Run found from index 8695841 to 10445841
2023-11-04 20:35:42,060 - INFO - Run found from index 10509314 to 12259314
2023-11-04 20:35:42,060 - INFO - Run found from index 12480866 to 14230866
2023-11-04 20:35:42,060 - INFO - Run found from index 14294290 to 16044290
2023-11-04 20:35:42,060 - INFO - Found 4 runs for run-03.
2023-11-04 20:35:42,060 - INFO - Run 1 for run-03: Start index: 8695841, End index: 10445841
2023-11-04 20:35:42,060 - INFO - Run 2 for run-03: Start index: 10509314, End index: 12259314
2023-11-04 20:35:42,061 - INFO - Run 3 for run-03: Start index: 12480866, End index: 14230866
2023-11-04 20:35:42,061 - INFO - Run 4 for run-03: Start index: 14294290, End index: 16044290
2023-11-04 20:35:42,061 - INFO - Processing Current Run run-03 of 4 Total Runs Identified.
2023-11-04 20:35:49,034 - INFO - Output files for run run-03 written successfully to /Users/PAM201/Documents/MRI/LEARN/BIDS_test/dataset/sub-LRN001/ses-1/func
2023-11-04 20:35:49,035 - INFO - Extracting metadata from /Users/PAM201/Documents/MRI/LEARN/BIDS_test/dataset/sub-LRN001/ses-1/func/sub-LRN001_ses-1_task-rest_run-04_bold.json
2023-11-04 20:35:49,035 - INFO - Metadata for run run-04 extracted successfully.
2023-11-04 20:35:49,035 - INFO - Run metadata for run-04: {'TaskName': 'rest', 'RepetitionTime': 2, 'NumVolumes': 175}
2023-11-04 20:35:49,035 - INFO - Repetition time: 2
2023-11-04 20:35:49,035 - INFO - Number of volumes per run: 175
2023-11-04 20:35:49,035 - INFO - Samples per volume: 10000
2023-11-04 20:35:49,092 - INFO - Trigger starts: [ 7929196  7967695  8006195  8096545  8135045  8173544  8695841  8705841
  8715841  8725841  8735841  8745841  8755841  8765840  8775840  8785840
  8795840  8805840  8815840  8825840  8835840  8845840  8855840  8865840
  8875839  8885839  8895839  8905839  8915839  8925839  8935839  8945839
  8955839  8965839  8975839  8985838  8995838  9005838  9015838  9025838
  9035838  9045838  9055838  9065838  9075838  9085837  9095837  9105837
  9115837  9125837  9135837  9145837  9155837  9165837  9175837  9185837
  9195836  9205836  9215836  9225836  9235836  9245836  9255836  9265836
  9275836  9285836  9295836  9305835  9315835  9325835  9335835  9345835
  9355835  9365835  9375835  9385835  9395835  9405835  9415834  9425834
  9435834  9445834  9455834  9465834  9475834  9485834  9495834  9505834
  9515834  9525833  9535833  9545833  9555833  9565833  9575833  9585833
  9595833  9605833  9615833  9625832  9635832  9645832  9655832  9665832
  9675832  9685832  9695832  9705832  9715832  9725832  9735831  9745831
  9755831  9765831  9775831  9785831  9795831  9805831  9815831  9825831
  9835831  9845830  9855830  9865830  9875830  9885830  9895830  9905830
  9915830  9925830  9935830  9945829  9955829  9965829  9975829  9985829
  9995829 10005829 10015829 10025829 10035829 10045829 10055828 10065828
 10075828 10085828 10095828 10105828 10115828 10125828 10135828 10145828
 10155828 10165827 10175827 10185827 10195827 10205827 10215827 10225827
 10235827 10245827 10255827 10265827 10275826 10285826 10295826 10305826
 10315826 10325826 10335826 10345826 10355826 10365826 10375825 10385825
 10395825 10405825 10415825 10425825 10435825 10509314 10519314 10529313
 10539313 10549313 10559313 10569313 10579313 10589313 10599313 10609313
 10619313 10629313 10639312 10649312 10659312 10669312 10679312 10689312
 10699312 10709312 10719312 10729312 10739312 10749311 10759311 10769311
 10779311 10789311 10799311 10809311 10819311 10829311 10839311 10849310
 10859310 10869310 10879310 10889310 10899310 10909310 10919310 10929310
 10939310 10949310 10959309 10969309 10979309 10989309 10999309 11009309
 11019309 11029309 11039309 11049309 11059309 11069308 11079308 11089308
 11099308 11109308 11119308 11129308 11139308 11149308 11159308 11169308
 11179307 11189307 11199307 11209307 11219307 11229307 11239307 11249307
 11259307 11269307 11279306 11289306 11299306 11309306 11319306 11329306
 11339306 11349306 11359306 11369306 11379306 11389305 11399305 11409305
 11419305 11429305 11439305 11449305 11459305 11469305 11479305 11489305
 11499304 11509304 11519304 11529304 11539304 11549304 11559304 11569304
 11579304 11589304 11599304 11609303 11619303 11629303 11639303 11649303
 11659303 11669303 11679303 11689303 11699303 11709302 11719302 11729302
 11739302 11749302 11759302 11769302 11779302 11789302 11799302 11809302
 11819301 11829301 11839301 11849301 11859301 11869301 11879301 11889301
 11899301 11909301 11919301 11929300 11939300 11949300 11959300 11969300
 11979300 11989300 11999300 12009300 12019300 12029300 12039299 12049299
 12059299 12069299 12079299 12089299 12099299 12109299 12119299 12129299
 12139298 12149298 12159298 12169298 12179298 12189298 12199298 12209298
 12219298 12229298 12239298 12249297 12480866 12490866 12500866 12510866
 12520866 12530866 12540866 12550865 12560865 12570865 12580865 12590865
 12600865 12610865 12620865 12630865 12640865 12650865 12660864 12670864
 12680864 12690864 12700864 12710864 12720864 12730864 12740864 12750864
 12760864 12770863 12780863 12790863 12800863 12810863 12820863 12830863
 12840863 12850863 12860863 12870862 12880862 12890862 12900862 12910862
 12920862 12930862 12940862 12950862 12960862 12970862 12980861 12990861
 13000861 13010861 13020861 13030861 13040861 13050861 13060861 13070861
 13080861 13090860 13100860 13110860 13120860 13130860 13140860 13150860
 13160860 13170860 13180860 13190859 13200859 13210859 13220859 13230859
 13240859 13250859 13260859 13270859 13280859 13290859 13300858 13310858
 13320858 13330858 13340858 13350858 13360858 13370858 13380858 13390858
 13400858 13410857 13420857 13430857 13440857 13450857 13460857 13470857
 13480857 13490857 13500857 13510857 13520856 13530856 13540856 13550856
 13560856 13570856 13580856 13590856 13600856 13610856 13620855 13630855
 13640855 13650855 13660855 13670855 13680855 13690855 13700855 13710855
 13720855 13730854 13740854 13750854 13760854 13770854 13780854 13790854
 13800854 13810854 13820854 13830854 13840853 13850853 13860853 13870853
 13880853 13890853 13900853 13910853 13920853 13930853 13940853 13950852
 13960852 13970852 13980852 13990852 14000852 14010852 14020852 14030852
 14040852 14050851 14060851 14070851 14080851 14090851 14100851 14110851
 14120851 14130851 14140851 14150851 14160850 14170850 14180850 14190850
 14200850 14210850 14220850 14294290 14304290 14314290 14324290 14334289
 14344289 14354289 14364289 14374289 14384289 14394289 14404289 14414289
 14424289 14434289 14444288 14454288 14464288 14474288 14484288 14494288
 14504288 14514288 14524288 14534288 14544288 14554287 14564287 14574287
 14584287 14594287 14604287 14614287 14624287 14634287 14644287 14654286
 14664286 14674286 14684286 14694286 14704286 14714286 14724286 14734286
 14744286 14754286 14764285 14774285 14784285 14794285 14804285 14814285
 14824285 14834285 14844285 14854285 14864285 14874284 14884284 14894284
 14904284 14914284 14924284 14934284 14944284 14954284 14964284 14974284
 14984283 14994283 15004283 15014283 15024283 15034283 15044283 15054283
 15064283 15074283 15084282 15094282 15104282 15114282 15124282 15134282
 15144282 15154282 15164282 15174282 15184282 15194281 15204281 15214281
 15224281 15234281 15244281 15254281 15264281 15274281 15284281 15294281
 15304280 15314280 15324280 15334280 15344280 15354280 15364280 15374280
 15384280 15394280 15404280 15414279 15424279 15434279 15444279 15454279
 15464279 15474279 15484279 15494279 15504279 15514278 15524278 15534278
 15544278 15554278 15564278 15574278 15584278 15594278 15604278 15614278
 15624277 15634277 15644277 15654277 15664277 15674277 15684277 15694277
 15704277 15714277 15724277 15734276 15744276 15754276 15764276 15774276
 15784276 15794276 15804276 15814276 15824276 15834276 15844275 15854275
 15864275 15874275 15884275 15894275 15904275 15914275 15924275 15934275
 15944274 15954274 15964274 15974274 15984274 15994274 16004274 16014274
 16024274 16034274 18341236 18381503 18702035 18862033 19022032 19182030
 19342029 19502027 19662026 19822024 19982023 20142021]
2023-11-04 20:35:49,092 - INFO - Number of trigger starts: 718
2023-11-04 20:35:49,092 - INFO - Run found from index 8695841 to 10445841
2023-11-04 20:35:49,092 - INFO - Run found from index 10509314 to 12259314
2023-11-04 20:35:49,092 - INFO - Run found from index 12480866 to 14230866
2023-11-04 20:35:49,092 - INFO - Run found from index 14294290 to 16044290
2023-11-04 20:35:49,092 - INFO - Found 4 runs for run-04.
2023-11-04 20:35:49,092 - INFO - Run 1 for run-04: Start index: 8695841, End index: 10445841
2023-11-04 20:35:49,092 - INFO - Run 2 for run-04: Start index: 10509314, End index: 12259314
2023-11-04 20:35:49,092 - INFO - Run 3 for run-04: Start index: 12480866, End index: 14230866
2023-11-04 20:35:49,092 - INFO - Run 4 for run-04: Start index: 14294290, End index: 16044290
2023-11-04 20:35:49,092 - INFO - Processing Current Run run-04 of 4 Total Runs Identified.
2023-11-04 20:35:56,075 - INFO - Output files for run run-04 written successfully to /Users/PAM201/Documents/MRI/LEARN/BIDS_test/dataset/sub-LRN001/ses-1/func
2023-11-04 20:35:56,076 - INFO - Full dataset shape: (21203169, 12)
2023-11-04 20:35:56,076 - INFO - Number of runs to plot: 32
2023-11-04 20:35:56,076 - INFO - Original labels being passed to plot_runs: ['ECG Test - ECG100C' 'RSP Test - RSP100C' 'EDA - EDA100C-MRI'
 'MRI Trigger - Custom, HLT100C - A 4' 'Digital input' 'Digital input'
 'Digital input' 'Digital input' 'Digital input' 'Digital input'
 'Digital input' 'Digital input']
2023-11-04 20:35:56,076 - INFO - BIDS labels being passed to plot_runs: ['cardiac', 'respiratory', 'eda', 'trigger']
2023-11-04 20:35:56,076 - INFO - Run 1 start index: 8695841, data shape: (1750000, 12)
2023-11-04 20:35:56,076 - INFO - Run 2 start index: 10509314, data shape: (1750000, 12)
2023-11-04 20:35:56,076 - INFO - Run 3 start index: 12480866, data shape: (1750000, 12)
2023-11-04 20:35:56,076 - INFO - Run 4 start index: 14294290, data shape: (1750000, 12)
2023-11-04 20:35:56,076 - INFO - Run 5 start index: 8695841, data shape: (1750000, 12)
2023-11-04 20:35:56,076 - INFO - Run 6 start index: 10509314, data shape: (1750000, 12)
2023-11-04 20:35:56,076 - INFO - Run 7 start index: 12480866, data shape: (1750000, 12)
2023-11-04 20:35:56,076 - INFO - Run 8 start index: 14294290, data shape: (1750000, 12)
2023-11-04 20:35:56,076 - INFO - Run 9 start index: 8695841, data shape: (1750000, 12)
2023-11-04 20:35:56,076 - INFO - Run 10 start index: 10509314, data shape: (1750000, 12)
2023-11-04 20:35:56,076 - INFO - Run 11 start index: 12480866, data shape: (1750000, 12)
2023-11-04 20:35:56,076 - INFO - Run 12 start index: 14294290, data shape: (1750000, 12)
2023-11-04 20:35:56,076 - INFO - Run 13 start index: 8695841, data shape: (1750000, 12)
2023-11-04 20:35:56,076 - INFO - Run 14 start index: 10509314, data shape: (1750000, 12)
2023-11-04 20:35:56,076 - INFO - Run 15 start index: 12480866, data shape: (1750000, 12)
2023-11-04 20:35:56,076 - INFO - Run 16 start index: 14294290, data shape: (1750000, 12)
2023-11-04 20:35:56,076 - INFO - Run 17 start index: 8695841, data shape: (1750000, 12)
2023-11-04 20:35:56,076 - INFO - Run 18 start index: 10509314, data shape: (1750000, 12)
2023-11-04 20:35:56,076 - INFO - Run 19 start index: 12480866, data shape: (1750000, 12)
2023-11-04 20:35:56,076 - INFO - Run 20 start index: 14294290, data shape: (1750000, 12)
2023-11-04 20:35:56,076 - INFO - Run 21 start index: 8695841, data shape: (1750000, 12)
2023-11-04 20:35:56,076 - INFO - Run 22 start index: 10509314, data shape: (1750000, 12)
2023-11-04 20:35:56,076 - INFO - Run 23 start index: 12480866, data shape: (1750000, 12)
2023-11-04 20:35:56,076 - INFO - Run 24 start index: 14294290, data shape: (1750000, 12)
2023-11-04 20:35:56,076 - INFO - Run 25 start index: 8695841, data shape: (1750000, 12)
2023-11-04 20:35:56,076 - INFO - Run 26 start index: 10509314, data shape: (1750000, 12)
2023-11-04 20:35:56,076 - INFO - Run 27 start index: 12480866, data shape: (1750000, 12)
2023-11-04 20:35:56,076 - INFO - Run 28 start index: 14294290, data shape: (1750000, 12)
2023-11-04 20:35:56,077 - INFO - Run 29 start index: 8695841, data shape: (1750000, 12)
2023-11-04 20:35:56,077 - INFO - Run 30 start index: 10509314, data shape: (1750000, 12)
2023-11-04 20:35:56,077 - INFO - Run 31 start index: 12480866, data shape: (1750000, 12)
2023-11-04 20:35:56,077 - INFO - Run 32 start index: 14294290, data shape: (1750000, 12)
2023-11-04 20:35:56,077 - WARNING - Duplicate run detected at start index 8695841 and will be ignored.
2023-11-04 20:35:56,077 - WARNING - Duplicate run detected at start index 10509314 and will be ignored.
2023-11-04 20:35:56,077 - WARNING - Duplicate run detected at start index 12480866 and will be ignored.
2023-11-04 20:35:56,077 - WARNING - Duplicate run detected at start index 14294290 and will be ignored.
2023-11-04 20:35:56,077 - WARNING - Duplicate run detected at start index 8695841 and will be ignored.
2023-11-04 20:35:56,077 - WARNING - Duplicate run detected at start index 10509314 and will be ignored.
2023-11-04 20:35:56,077 - WARNING - Duplicate run detected at start index 12480866 and will be ignored.
2023-11-04 20:35:56,077 - WARNING - Duplicate run detected at start index 14294290 and will be ignored.
2023-11-04 20:35:56,077 - WARNING - Duplicate run detected at start index 8695841 and will be ignored.
2023-11-04 20:35:56,077 - WARNING - Duplicate run detected at start index 10509314 and will be ignored.
2023-11-04 20:35:56,077 - WARNING - Duplicate run detected at start index 12480866 and will be ignored.
2023-11-04 20:35:56,077 - WARNING - Duplicate run detected at start index 14294290 and will be ignored.
2023-11-04 20:35:56,077 - WARNING - Duplicate run detected at start index 8695841 and will be ignored.
2023-11-04 20:35:56,077 - WARNING - Duplicate run detected at start index 10509314 and will be ignored.
2023-11-04 20:35:56,077 - WARNING - Duplicate run detected at start index 12480866 and will be ignored.
2023-11-04 20:35:56,077 - WARNING - Duplicate run detected at start index 14294290 and will be ignored.
2023-11-04 20:35:56,077 - WARNING - Duplicate run detected at start index 8695841 and will be ignored.
2023-11-04 20:35:56,077 - WARNING - Duplicate run detected at start index 10509314 and will be ignored.
2023-11-04 20:35:56,077 - WARNING - Duplicate run detected at start index 12480866 and will be ignored.
2023-11-04 20:35:56,077 - WARNING - Duplicate run detected at start index 14294290 and will be ignored.
2023-11-04 20:35:56,077 - WARNING - Duplicate run detected at start index 8695841 and will be ignored.
2023-11-04 20:35:56,077 - WARNING - Duplicate run detected at start index 10509314 and will be ignored.
2023-11-04 20:35:56,077 - WARNING - Duplicate run detected at start index 12480866 and will be ignored.
2023-11-04 20:35:56,077 - WARNING - Duplicate run detected at start index 14294290 and will be ignored.
2023-11-04 20:35:56,077 - WARNING - Duplicate run detected at start index 8695841 and will be ignored.
2023-11-04 20:35:56,077 - WARNING - Duplicate run detected at start index 10509314 and will be ignored.
2023-11-04 20:35:56,077 - WARNING - Duplicate run detected at start index 12480866 and will be ignored.
2023-11-04 20:35:56,077 - WARNING - Duplicate run detected at start index 14294290 and will be ignored.
2023-11-04 20:35:56,077 - INFO - Number of unique runs to plot after deduplication: 4
2023-11-04 20:35:56,077 - INFO - Starting to plot runs.
2023-11-04 20:35:56,077 - ERROR - Failed to plot runs
Traceback (most recent call last):
  File "/Users/PAM201/Documents/MATLAB/software/iNR/BIDS_tools/process_physio_ses_1.py", line 400, in plot_runs
    if data.size == 0 or runs.size == 0:
                         ^^^^^^^^^
AttributeError: 'list' object has no attribute 'size'
2023-11-04 20:35:56,077 - ERROR - An error occurred during the main processing
Traceback (most recent call last):
  File "/Users/PAM201/Documents/MATLAB/software/iNR/BIDS_tools/process_physio_ses_1.py", line 562, in main
    plot_runs(data, runs_info, bids_labels_list, sampling_rate, original_labels, plot_file_path)
  File "/Users/PAM201/Documents/MATLAB/software/iNR/BIDS_tools/process_physio_ses_1.py", line 446, in plot_runs
    raise e
  File "/Users/PAM201/Documents/MATLAB/software/iNR/BIDS_tools/process_physio_ses_1.py", line 400, in plot_runs
    if data.size == 0 or runs.size == 0:
                         ^^^^^^^^^
AttributeError: 'list' object has no attribute 'size'
2023-11-04 20:35:56,077 - ERROR - Processing terminated due to an unexpected error.
